Time,Temp
0,28.2821082448
0.0166666666667,28.7270220798
0.0333333333333,29.1476976742
0.05,29.4930761861
0.0666666666667,29.7935990687
0.0833333333333,30.0725278723
0.1,30.3151888464
0.116666666667,30.5551596531
0.133333333333,30.7499491157
0.15,30.9581048499
0.166666666667,31.1238917272
0.183333333333,31.2986222262
0.2,31.4455697106
0.216666666667,31.5940964959
0.233333333333,31.7206540582
0.25,31.8605537283
0.266666666667,31.9696008087
0.283333333333,32.0860875492
0.3,32.1819875136
0.316666666667,32.2764627127
0.333333333333,32.368034183
0.35,32.4611323506
0.366666666667,32.5335771643
0.383333333333,32.6104914129
0.4,32.6815206398
0.416666666667,32.7451769091
0.433333333333,32.8162643027
0.45,32.8696002749
0.466666666667,32.9288831871
0.483333333333,32.9778081393
0.5,33.0267481683
0.516666666667,33.0786708538
0.533333333333,33.1246738839
0.55,33.1528759999
0.566666666667,33.1974160986
0.583333333333,33.2256314725
0.6,33.2687070322
0.616666666667,33.2924780479
0.633333333333,33.3162527697
0.65,33.3400312097
0.666666666667,33.3786791369
0.683333333333,33.3861125643
0.7,33.4113889624
0.716666666667,33.4307208417
0.733333333333,33.4560047552
0.75,33.4679045472
0.766666666667,33.4812929479
0.783333333333,33.4827806222
0.8,33.4961703602
0.816666666667,33.5065854345
0.833333333333,33.5140252205
0.85,33.5259296543
0.866666666667,33.5289059122
0.883333333333,33.5289059122
0.9,33.5303940635
0.916666666667,33.5393232859
0.933333333333,33.5393232859
0.95,33.5378350448
0.966666666667,33.5408115421
0.983333333333,33.5393232859
1,33.5348586074
1.01666666667,33.5318822299
1.03333333333,33.5289059122
1.05,33.5274177758
1.06666666667,33.5229534562
1.08333333333,33.5140252205
1.1,33.5080733619
1.11666666667,33.5021217419
1.13333333333,33.4917069803
1.15,33.4812929479
1.16666666667,33.4812929479
1.18333333333,33.4753423992
1.2,33.4604670661
1.21666666667,33.4530299553
1.23333333333,33.4366696136
1.25,33.4173369678
1.26666666667,33.4099019979
1.28333333333,33.389086038
1.3,33.3861125643
1.31666666667,33.3742192562
1.33333333333,33.3459764022
1.35,33.3355724684
1.36666666667,33.3147667408
1.38333333333,33.2939638593
1.4,33.290992251
1.41666666667,33.2731638159
1.43333333333,33.2538520239
1.45,33.2300870043
1.46666666667,33.2196909642
1.48333333333,33.1974160986
1.5,33.1766291241
1.51666666667,33.148422694
1.53333333333,33.127642287
1.55,33.1202213853
1.56666666667,33.1009286934
1.58333333333,33.0771871103
1.6,33.0519656173
1.61666666667,33.0252649146
1.63333333333,33.0059838836
1.65,32.9822566082
1.66666666667,32.9585328794
1.68333333333,32.9348126849
1.7,32.915542621
1.71666666667,32.8933108126
1.73333333333,32.8666367032
1.75,32.8414485418
1.76666666667,32.8192269513
1.78333333333,32.7970084044
1.8,32.7673883927
1.81666666667,32.7422156056
1.83333333333,32.7229684359
1.85,32.6992827049
1.86666666667,32.6578408541
1.88333333333,32.6312051356
1.9,32.6134503586
1.91666666667,32.5809048363
1.93333333333,32.5528024252
1.95,32.5320983889
1.96666666667,32.504004114
1.98333333333,32.4655668596
2,32.4433954673
2.01666666667,32.4138380821
2.03333333333,32.3828083039
2.05,32.3621248885
2.06666666667,32.3340584936
2.08333333333,32.2986126857
2.1,32.2676035083
2.11666666667,32.2484101002
2.13333333333,32.2056015745
2.15,32.1805117392
2.16666666667,32.1569010135
2.18333333333,32.1288673369
2.2,32.0875625448
2.21666666667,32.0624892589
2.23333333333,32.024148599
2.25,31.9931870438
2.26666666667,31.9681267698
2.28333333333,31.9445437561
2.3,31.9003337351
2.31666666667,31.8738127856
2.33333333333,31.8414034192
2.35,31.8045814029
2.36666666667,31.7810190942
2.38333333333,31.7515703378
2.4,31.710349746
2.41666666667,31.6867991164
2.43333333333,31.6470639769
2.45,31.6176358131
2.46666666667,31.5940964959
2.48333333333,31.5632054558
2.5,31.522024977
2.51666666667,31.4984971396
2.53333333333,31.4558600528
2.55,31.4279303567
2.56666666667,31.4044136329
2.58333333333,31.3691436981
2.6,31.3338799091
2.61666666667,31.3074360766
2.63333333333,31.2648393068
2.65,31.233998869
2.66666666667,31.2119727962
2.68333333333,31.1737997883
2.7,31.1371015333
2.71666666667,31.1150856486
2.73333333333,31.0769301998
2.75,31.0475845038
2.76666666667,31.0153088779
2.78333333333,30.9801046132
2.8,30.9522386219
2.81666666667,30.9170445601
2.83333333333,30.878924023
2.85,30.8510708645
2.86666666667,30.8202898525
2.88333333333,30.7807204854
2.9,30.7484839167
2.91666666667,30.7133219746
2.93333333333,30.6810949502
2.95,30.6547307467
2.96666666667,30.6269051282
2.98333333333,30.5859050215
3,30.5610156038
3.01666666667,30.5185632496
3.03333333333,30.4907537561
3.05,30.4658743223
3.06666666667,30.4278284048
3.08333333333,30.3956403782
3.1,30.3663822259
3.11666666667,30.326889254
3.13333333333,30.2976392701
3.15,30.265468258
3.16666666667,30.230377318
3.18333333333,30.2055241881
3.2,30.1719032352
3.21666666667,30.1295178932
3.23333333333,30.1046745521
3.25,30.0725278723
3.26666666667,30.0330805254
3.28333333333,30.0024033342
3.3,29.9731902534
3.31666666667,29.9352180121
3.33333333333,29.9103928984
3.35,29.8797297126
3.36666666667,29.8403106625
3.38333333333,29.8154941503
3.4,29.7731652079
3.41666666667,29.745435917
3.43333333333,29.7206278051
3.45,29.6870673308
3.46666666667,29.64913413
3.48333333333,29.6257930948
3.5,29.5820336859
3.51666666667,29.5528643624
3.53333333333,29.5309892521
3.55,29.4945342925
3.56666666667,29.4668314744
3.58333333333,29.4332998641
3.6,29.3983142699
3.61666666667,29.3735352041
3.63333333333,29.3429284909
3.65,29.3050385954
3.66666666667,29.2686102706
3.68333333333,29.2496691803
3.7,29.2103335424
3.71666666667,29.1739158891
3.73333333333,29.1549803032
3.75,29.1185687525
3.76666666667,29.0923548906
3.78333333333,29.0574062401
3.8,29.0210052047
3.81666666667,28.9860638273
3.83333333333,28.9656829778
3.85,28.9307471307
3.86666666667,28.8987256297
3.88333333333,28.8739837055
3.9,28.8390568147
3.91666666667,28.7750328347
3.93333333333,28.7357508524
3.95,28.7153840294
3.96666666667,28.6804720099
3.98333333333,28.6470176314
4,28.6208379516
4.01666666667,28.5902971966
4.03333333333,28.5553963523
4.05,28.5175905234
4.06666666667,28.4957810672
4.08333333333,28.4608883428
4.1,28.4347207225
4.11666666667,28.401286689
4.13333333333,28.370762259
4.15,28.3489604218
4.16666666667,28.3140797569
4.18333333333,28.280655049
4.2,28.2457797647
4.21666666667,28.225437094
4.23333333333,28.1905660526
4.25,28.1527920582
4.26666666667,28.1339062035
4.28333333333,28.0961367483
4.3,28.0714429416
4.31666666667,28.0438454648
4.33333333333,28.0089877036
4.35,27.979941428
4.36666666667,27.9523490097
4.38333333333,27.9116891992
4.4,27.8870044329
4.41666666667,27.8623208192
4.43333333333,27.8347345981
4.45,27.7955355362
4.46666666667,27.7723077779
4.48333333333,27.7331131179
4.5,27.7040817761
4.51666666667,27.6794062809
4.53333333333,27.6561832341
4.55,27.6155450809
4.56666666667,27.5923245046
4.58333333333,27.5603976421
4.6,27.5270212997
4.61666666667,27.4950977374
4.63333333333,27.471881588
4.65,27.4385098041
4.66666666667,27.4051396775
4.68333333333,27.3891806278
4.7,27.3514606924
4.71666666667,27.3209960572
4.73333333333,27.3050389046
4.75,27.2731256406
4.76666666667,27.2383127249
4.78333333333,27.2165554597
4.8,27.177393912
4.81666666667,27.1483865995
4.83333333333,27.1251814933
4.85,27.101977036
4.86666666667,27.0642711475
4.88333333333,27.0338175873
4.9,27.0164160218
4.91666666667,26.9830639537
4.93333333333,26.9584131966
4.95,26.9352130692
4.96666666667,26.900413917
4.98333333333,26.8685157603
5,26.8467675862
5.01666666667,26.8134212577
5.03333333333,26.7844252851
5.05,26.7539803243
5.06666666667,26.7336841324
5.08333333333,26.7061398591
5.1,26.6742472705
5.11666666667,26.6597509087
5.13333333333,26.6177123794
5.15,26.591620165
5.16666666667,26.5684274979
5.18333333333,26.5466847144
5.2,26.5147958771
5.21666666667,26.493053869
5.23333333333,26.4684132865
5.25,26.4292789972
5.26666666667,26.4060887245
5.28333333333,26.3843481134
5.3,26.3582597108
5.31666666667,26.3234757086
5.33333333333,26.2930401804
5.35,26.2785472192
5.36666666667,26.2452137505
5.38333333333,26.2191270031
5.4,26.1973882455
5.41666666667,26.1756496582
5.43333333333,26.1394190326
5.45,26.1220284784
5.46666666667,26.0988412092
5.48333333333,26.0626113877
5.5,26.0365261116
5.51666666667,26.0133393218
5.53333333333,25.9916018004
5.55,25.9611694049
5.56666666667,25.9321862956
5.58333333333,25.8930592506
5.6,25.8206020488
5.61666666667,25.7945174939
5.63333333333,25.7611872183
5.65,25.7423483496
5.66666666667,25.7177128746
5.68333333333,25.6872807492
5.7,25.6640943026
5.71666666667,25.6423569461
5.73333333333,25.6191703549
5.75,25.5858394668
5.76666666667,25.5554067228
5.78333333333,25.5452624289
5.8,25.5090326013
5.81666666667,25.4858453272
5.83333333333,25.4641071149
5.85,25.4380210641
5.86666666667,25.4119347838
5.88333333333,25.3887467733
5.9,25.3655585572
5.91666666667,25.3365729801
5.93333333333,25.313384259
5.95,25.2843980143
5.96666666667,25.2713540742
5.98333333333,25.2496139875
6,25.2119305928
6.01666666667,25.1858416375
6.03333333333,25.1713476069
6.05,25.136561428
6.06666666667,25.1133702305
6.08333333333,25.0901786904
6.1,25.0698858026
6.11666666667,25.0495926359
6.13333333333,25.0191523458
6.15,25.0017575947
6.16666666667,24.9814634348
6.18333333333,24.9495719773
6.2,24.9278273436
6.21666666667,24.9075320072
6.23333333333,24.8857866253
6.25,24.8596916368
6.26666666667,24.8321462821
6.28333333333,24.8103994692
6.3,24.7930017067
6.31666666667,24.7640048052
6.33333333333,24.7393568044
6.35,24.7176080724
6.36666666667,24.701658701
6.38333333333,24.6784591515
6.4,24.6494589257
6.41666666667,24.6335084202
6.43333333333,24.6146574675
6.45,24.5813048206
6.46666666667,24.5595524187
6.48333333333,24.5348990375
6.5,24.5247474387
6.51666666667,24.504443874
6.53333333333,24.4739875952
6.55,24.4522324128
6.56666666667,24.4391790197
6.58333333333,24.4116211472
6.6,24.392765198
6.61666666667,24.3710077557
6.63333333333,24.3492496854
6.65,24.3303921756
6.66666666667,24.3115341805
6.68333333333,24.2810702242
6.7,24.2694645646
6.71666666667,24.2535064696
6.73333333333,24.2230399966
6.75,24.2027282609
6.76666666667,24.1853177147
6.78333333333,24.1635538919
6.8,24.1461423156
6.81666666667,24.1229261549
6.83333333333,24.0924536674
6.85,24.0721378588
6.86666666667,24.0619797064
6.88333333333,24.0315042451
6.9,24.0111864244
6.91666666667,23.9981246062
6.93333333333,23.976354273
6.95,23.9589374283
6.96666666667,23.9386171196
6.98333333333,23.9110384131
7,23.8979743501
7.01666666667,23.8805551296
7.03333333333,23.8558769719
7.05,23.835552957
7.06666666667,23.8152281873
7.08333333333,23.7934508016
7.1,23.7818358345
7.11666666667,23.7644129085
7.13333333333,23.7353734182
7.15,23.7164968822
7.16666666667,23.7005238892
7.18333333333,23.6845503977
7.2,23.6540541519
7.21666666667,23.6351745943
7.23333333333,23.6177466729
7.25,23.6061277161
7.26666666667,23.5843414277
7.28333333333,23.5640066753
7.3,23.5378607274
7.31666666667,23.5305977092
7.33333333333,23.5088079843
7.35,23.4870172462
7.36666666667,23.462319839
7.38333333333,23.4448855762
7.4,23.4318094417
7.41666666667,23.4172799609
7.43333333333,23.3969378996
7.45,23.3707824583
7.46666666667,23.3504382674
7.48333333333,23.3300931316
7.5,23.3228267812
7.51666666667,23.2966669075
7.53333333333,23.2792261056
7.55,23.2603310968
7.56666666667,23.2385281126
7.58333333333,23.2298066016
7.6,23.212363032
7.61666666667,23.1891037963
7.63333333333,23.1658432434
7.65,23.1542124692
7.66666666667,23.1425813611
7.68333333333,23.1105940805
7.7,23.0960535607
7.71666666667,23.0727876184
7.73333333333,23.0524287895
7.75,23.0480660453
7.76666666667,23.0277059249
7.78333333333,23.0073447321
7.8,22.9840734739
7.81666666667,22.9622553768
7.83333333333,22.9564370051
7.85,22.936071995
7.86666666667,22.9098867802
7.88333333333,22.8807899264
7.9,22.8458706534
7.91666666667,22.8284097578
7.93333333333,22.8036720395
7.95,22.7934854233
7.96666666667,22.7745666477
7.98333333333,22.7614684416
8,22.7338150714
8.01666666667,22.7163486575
8.03333333333,22.7032482705
8.05,22.6857803149
8.06666666667,22.6726787658
8.08333333333,22.6552092529
8.1,22.6348270204
8.11666666667,22.611531535
8.13333333333,22.5882344321
8.15,22.5853221799
8.16666666667,22.5678481307
8.18333333333,22.5430916468
8.2,22.5270717518
8.21666666667,22.513963981
8.23333333333,22.497942655
8.25,22.4833771254
8.26666666667,22.4673542827
8.28333333333,22.4455036613
8.3,22.4265652446
8.31666666667,22.4163671671
8.33333333333,22.3988839823
8.35,22.3828568752
8.36666666667,22.3566289266
8.38333333333,22.3478857854
8.4,22.3260268505
8.41666666667,22.3099959783
8.43333333333,22.3056237767
8.45,22.2866768463
8.46666666667,22.2735590495
8.48333333333,22.245864055
8.5,22.2327444839
8.51666666667,22.2137929768
8.53333333333,22.2050457211
8.55,22.1817184449
8.56666666667,22.1656798738
8.58333333333,22.1481822521
8.6,22.1423494791
8.61666666667,22.1204755409
8.63333333333,22.1102671394
8.65,22.092766184
8.66666666667,22.072347058
8.68333333333,22.051926476
8.7,22.0490091306
8.71666666667,22.0271280856
8.73333333333,22.0125397825
8.75,21.9921148886
8.76666666667,21.9775247677
8.78333333333,21.9585564701
8.8,21.9512606265
8.81666666667,21.9366683628
8.83333333333,21.920615982
8.85,21.9074815191
8.86666666667,21.8870488804
8.88333333333,21.8666147102
8.9,21.8505582108
8.91666666667,21.8403399416
8.93333333333,21.828661445
8.95,21.8082228528
8.96666666667,21.7921628622
8.98333333333,21.7746417667
9,21.7600399687
9.01666666667,21.7468976597
9.03333333333,21.7439770575
9.05,21.7235319321
9.06666666667,21.7074667839
9.08333333333,21.6840975257
9.1,21.6767942006
9.11666666667,21.6665691986
9.13333333333,21.6534221716
9.15,21.6329699031
9.16666666667,21.6110549428
9.18333333333,21.6022884305
9.2,21.5847544971
9.21666666667,21.5686806563
9.23333333333,21.561374026
9.25,21.5467601279
9.26666666667,21.536529892
9.28333333333,21.5204529603
9.3,21.4970664774
9.31666666667,21.4882959773
9.33333333333,21.4707540422
9.35,21.4649064527
9.36666666667,21.4444387922
9.38333333333,21.4268937195
9.4,21.4181207094
9.41666666667,21.4020360343
9.43333333333,21.384487897
9.45,21.3742508941
9.46666666667,21.3713259562
9.48333333333,21.3537755801
9.5,21.342074615
9.51666666667,21.323059323
9.53333333333,21.3084311406
9.55,21.3025796149
9.56666666667,21.2864871727
9.58333333333,21.2777090143
9.6,21.2572253699
9.61666666667,21.239666535
9.63333333333,21.2308866223
9.65,21.2147892554
9.66666666667,21.2089353908
9.68333333333,21.1913729088
9.7,21.1840548138
9.71666666667,21.1679541865
9.73333333333,21.1562439305
9.75,21.1357495409
9.76666666667,21.116717387
9.78333333333,21.1123251252
9.8,21.0947552268
9.81666666667,21.090362539
9.83333333333,21.0771839624
9.85,21.0596113267
9.86666666667,21.0464309466
9.88333333333,21.0332497899
9.9,21.0244619194
9.91666666667,21.015673702
9.93333333333,21.0024907239
9.95,20.996631371
9.96666666667,20.9805173498
9.98333333333,20.9717273877
10,20.9556115451
,